freq,spl,phase
20.0000,-0.3851,-177.8799
20.6610,0.2752,-178.2145
21.3438,0.9424,-178.5489
22.0491,1.6171,-178.8839
22.7778,2.3001,-179.2199
23.5306,2.9921,-179.5576
24.3082,3.6939,-179.8977
25.1116,4.4067,179.7589
25.9415,5.1313,179.4115
26.7988,5.8692,179.0590
27.6845,6.6215,178.7005
28.5994,7.3900,178.3346
29.5445,8.1764,177.9599
30.5209,8.9828,177.5748
31.5296,9.8115,177.1772
32.5716,10.6654,176.7648
33.6480,11.5478,176.3346
34.7600,12.4625,175.8830
35.9088,13.4144,175.4053
37.0955,14.4092,174.8956
38.3215,15.4540,174.3460
39.5879,16.5576,173.7458
40.8962,17.7316,173.0804
42.2478,18.9909,172.3285
43.6440,20.3558,171.4586
45.0864,21.8541,170.4213
46.5764,23.5267,169.1349
48.1157,25.4356,167.4533
49.7058,27.6821,165.0872
51.3485,30.4459,161.3739
53.0455,34.0806,154.4198
54.7985,39.2434,136.5624
56.6095,43.2727,80.3372
58.4804,39.6752,31.1082
60.4130,35.3320,12.8856
62.4096,32.4314,5.7594
64.4721,30.4290,1.6966
66.6028,29.0126,-1.4126
68.8039,28.0387,-5.1068
71.0777,26.9493,-9.0127
73.4267,26.7630,-10.1938
75.8534,27.5560,-15.3953
78.3602,30.0123,-28.8304
80.9499,34.3733,-82.2109
83.6251,27.9462,-154.5914
86.3888,22.4477,-178.9032
89.2438,20.6979,158.1758
92.1931,15.7544,130.7713
95.2399,15.5325,154.8975
98.3874,18.3554,158.3807
101.6390,21.3800,157.5348
104.9980,25.0098,155.1706
108.4680,30.0592,150.4313
112.0526,38.5693,130.5880
115.7558,43.3093,12.2524
119.5813,33.5286,-9.1477
123.5333,31.6912,-15.9726
127.6158,32.4587,-29.2489
131.8333,29.4071,-14.1414
136.1902,35.2832,-38.4219
140.6910,43.8525,-66.5075
145.3406,45.5481,-177.4107
150.1439,42.5959,149.3396
155.1059,47.7154,88.0237
160.2318,38.9494,-0.9886
165.5272,34.2401,-30.8011
170.9976,29.9959,-52.2276
176.6488,42.0985,176.4251
182.4867,24.6224,69.4750
188.5176,38.8308,54.8117
194.7477,28.0128,-25.6729
201.1838,23.7652,-71.6951
207.8326,24.2887,-37.8942
214.7011,26.4403,-44.3143
221.7966,33.6957,-95.1179
229.1266,18.2693,132.7004
236.6988,36.3745,-111.4863
244.5213,36.4258,59.9965
252.6023,39.0284,-84.9737
260.9503,31.4458,172.0109
269.5743,29.6078,75.9124
278.4833,33.0168,-93.5280
287.6866,37.0489,-175.2339
297.1942,28.6374,136.5336
307.0159,32.5443,8.3861
317.1623,28.5166,175.9039
327.6439,30.0825,99.5023
338.4720,28.9124,-72.0999
349.6579,27.4000,-176.8868
361.2135,21.9689,25.5631
373.1509,15.0959,174.8822
385.4829,35.8699,14.1565
398.2225,14.5487,-107.8324
411.3830,29.2561,-11.7745
424.9785,18.6524,38.6336
439.0233,25.7426,-1.6134
453.5323,19.7436,-91.2090
468.5207,20.5899,-179.1440
484.0045,18.5732,-160.4671
500.0000,23.5420,82.1095
505.0000,26.4625,27.5695
524.1193,26.3019,25.5046
543.9625,25.8250,23.3615
564.5569,25.0907,21.1373
585.9310,24.1887,18.8289
608.1143,23.2294,16.4331
631.1376,22.3300,13.9466
655.0324,21.6007,11.3660
679.8319,21.1314,8.6876
705.5704,20.9809,5.9079
732.2833,20.9417,3.0229
760.0075,20.7936,0.0286
788.7814,20.5568,-3.0789
818.6447,20.2630,-6.3042
849.6386,19.9506,-9.6515
881.8059,19.6605,-13.1256
915.1910,19.4313,-16.7312
949.8402,19.2943,-20.4733
985.8011,19.2700,-24.3571
1023.1236,19.3621,-28.3879
1061.8590,19.5603,-32.5713
1102.0610,19.8454,-36.9131
1143.7850,20.1876,-41.4193
1187.0887,20.5507,-46.0961
1232.0319,20.8959,-50.9500
1278.6766,21.1867,-55.9876
1327.0873,21.3935,-61.2160
1377.3308,21.4968,-66.6423
1429.4766,21.5336,-72.2740
1483.5966,21.5489,-78.1190
1539.7655,21.5467,-84.1852
1598.0611,21.5326,-90.4811
1658.5637,21.5141,-97.0154
1721.3569,21.4987,-103.7971
1786.5274,21.4938,-110.8355
1854.1654,21.5052,-118.1404
1924.3641,21.5366,-125.7219
1997.2205,21.5319,-133.5904
2072.8353,21.4393,-141.7568
2151.3128,21.2742,-150.2323
2232.7615,21.0607,-159.0288
2317.2938,20.8281,-168.1583
2405.0266,20.6079,-177.6334
2496.0809,20.4296,172.5327
2590.5825,20.3171,162.3265
2688.6620,20.2862,151.7340
2790.4547,20.4356,140.7403
2896.1013,20.8418,129.3305
3005.7477,21.4566,117.4887
3119.5453,22.2059,105.1986
3237.6513,22.9993,92.4431
3360.2288,23.7401,79.2047
3487.4470,24.3380,65.4652
3619.4818,24.7189,51.2054
3756.5154,24.8349,36.4058
3898.7370,24.8515,21.0459
4046.3432,24.9455,5.1044
4199.5378,25.1023,-11.4406
4358.5323,25.2993,-28.6120
4523.5463,25.5085,-46.4335
4694.8078,25.7005,-64.9298
4872.5532,25.8473,-84.1263
5057.0280,25.9265,-104.0496
5248.4871,25.9233,-124.7272
5447.1948,25.7154,-146.1876
5653.4256,25.2051,-168.4605
5867.4643,24.4483,168.4233
6089.6065,23.5309,144.4320
6320.1590,22.5578,119.5323
6559.4402,21.6409,93.6899
6807.7806,20.8851,66.8691
7065.5232,20.3761,39.0330
7333.0239,20.1698,10.1429
7610.6522,20.2626,-19.8410
7898.7915,20.6149,-50.9600
8197.8397,21.0191,-83.2572
8508.2099,21.4789,-116.7772
8830.3307,21.9882,-151.5663
9164.6470,22.4516,172.3276
9511.6206,22.7796,134.8544
9871.7305,22.8991,95.9626
10245.4742,22.7625,55.5982
10633.3679,22.4359,13.7057
11035.9472,22.0087,-29.7728
11453.7681,21.4997,-74.8975
11887.4078,20.9380,-121.7306
12337.4650,20.3591,-170.3368
12804.5615,19.8008,139.2168
13289.3421,19.2987,86.8605
13792.4766,18.8818,32.5220
14314.6598,18.5689,-23.8738
14856.6128,18.3671,-82.4047
15419.0841,18.2699,-143.1516
16002.8507,18.2584,153.8016
16608.7186,18.3030,88.3679
17237.5246,18.3678,20.4568
17890.1373,18.4144,-50.0254
18567.4579,18.4069,-123.1760
19270.4218,18.3158,160.9039
20000.0000,18.1220,82.1095
