# Woofer frequency response
# freq (Hz), SPL (dB)
frequency,spl
20,75.0
25,77.0
31.5,79.0
40,81.0
50,82.5
63,83.5
80,84.0
100,84.5
125,85.0
160,85.5
200,86.0
250,86.5
315,87.0
400,87.5
500,88.0
630,88.5
800,89.0
1000,89.5
1250,90.0
1600,90.5
2000,91.0
2500,91.0
3150,90.5
4000,89.0
5000,86.0
6300,81.0
8000,74.0
10000,65.0
