freq,spl,phase
20.0000,41.6562,-175.2052
20.6610,41.2875,-176.1302
21.3438,40.9320,-177.0722
22.0491,40.5911,-178.0352
22.7778,40.2664,-179.0236
23.5306,39.9598,179.9574
24.3082,39.6734,178.9014
25.1116,39.4094,177.8012
25.9415,39.1706,176.6480
26.7988,38.9602,175.4315
27.6845,38.7819,174.1398
28.5994,38.6402,172.7597
29.5445,38.5410,171.2771
30.5209,38.4929,169.6788
31.5296,38.5107,167.9476
32.5716,38.6219,166.0233
33.6480,38.8680,163.6467
34.7600,39.2559,160.2214
35.9088,39.7193,155.3309
37.0955,40.2235,148.9232
38.3215,40.7676,140.5462
39.5879,41.2699,129.2486
40.8962,41.4707,114.1728
42.2478,40.9311,96.0340
43.6440,39.3701,78.2457
45.0864,37.0045,64.4511
46.5764,34.2452,55.8707
48.1157,31.3509,52.3857
49.7058,28.4648,54.2249
51.3485,25.8335,62.4009
53.0455,24.0213,76.9505
54.7985,23.5099,94.2221
56.6095,24.2894,110.3773
58.4804,26.1809,121.8379
60.4130,28.6688,126.9073
62.4096,31.4846,126.3574
64.4721,34.6913,119.9875
66.6028,38.3894,104.1831
68.8039,41.5363,70.2222
71.0777,40.9544,27.5947
73.4267,38.3916,0.1303
75.8534,36.3075,-18.9299
78.3602,34.8855,-40.0991
80.9499,32.8911,-73.6862
83.6251,26.6040,-117.9540
86.3888,8.5469,-124.8130
89.2438,13.4067,-25.5674
92.1931,15.3692,-28.6467
95.2399,15.1407,-32.1638
98.3874,14.8842,-24.6354
101.6390,17.3437,-25.5671
104.9980,19.7287,-41.2926
108.4680,21.2635,-71.7071
112.0526,20.4854,-114.3412
115.7558,15.7689,-150.1478
119.5813,9.9840,-164.8760
123.5333,4.8881,-155.2084
127.6158,8.0254,-139.5024
131.8333,11.0518,166.0296
136.1902,10.9638,81.7734
140.6910,10.4601,-49.8260
145.3406,6.9033,-151.6848
150.1439,-0.2192,32.0306
155.1059,10.2037,-101.4385
160.2318,10.9630,169.8750
165.5272,4.3293,123.5620
170.9976,1.2773,114.1362
176.6488,1.5634,111.6542
182.4867,3.8338,76.8417
188.5176,0.9593,32.7897
194.7477,-1.6122,18.1648
201.1838,-2.7750,-13.8209
207.8326,-0.1521,-31.3813
214.7011,-1.6665,-101.5294
221.7966,-7.1120,-157.6857
229.1266,-12.4671,-155.1800
236.6988,-12.1461,143.6189
244.5213,-22.6922,101.3873
252.6023,-20.7421,126.7715
260.9503,-19.9105,62.8648
269.5743,-17.8316,50.6953
278.4833,-11.8150,-35.9644
287.6866,-13.4364,-109.4384
297.1942,-20.4982,138.6179
307.0159,-19.7772,-10.3779
317.1623,-24.6708,-105.3160
327.6439,-19.0260,-169.0454
338.4720,-27.4230,132.5741
349.6579,-21.1672,115.8872
361.2135,-23.4926,51.1136
373.1509,-32.8447,-1.4744
385.4829,-31.3768,-19.4994
398.2225,-32.0223,-85.2478
411.3830,-35.1208,-104.0957
424.9785,-35.5774,11.8546
439.0233,-41.0809,-95.7530
453.5323,-34.3226,-102.9481
468.5207,-41.3366,-132.4404
484.0045,-32.7501,132.1332
500.0000,-39.8981,60.6085
505.0000,-40.7594,-121.1915
524.1193,-43.9761,-128.0744
543.9625,-47.1929,-135.2180
564.5569,-50.4096,-142.6320
585.9310,-53.6263,-150.3266
608.1143,-56.8430,-158.3126
631.1376,-60.0597,-166.6010
655.0324,-63.2764,-175.2031
679.8319,-66.4931,175.8690
705.5704,-69.7098,166.6032
732.2833,-72.9265,156.9865
760.0075,-76.1433,147.0058
788.7814,-79.3600,136.6472
818.6447,-82.5767,125.8964
849.6386,-85.7934,114.7386
881.8059,-89.0101,103.1584
915.1910,-92.2268,91.1397
949.8402,-95.4435,78.6661
985.8011,-98.6602,65.7201
1023.1236,-101.8769,52.2840
1061.8590,-105.0937,38.3393
1102.0610,-108.3104,23.8666
1143.7850,-111.5271,8.8459
1187.0887,-114.7438,-6.7434
1232.0319,-117.9605,-22.9230
1278.6766,-120.0000,-39.7151
1327.0873,-120.0000,-57.1429
1377.3308,-120.0000,-75.2306
1429.4766,-120.0000,-94.0030
1483.5966,-120.0000,-113.4862
1539.7655,-120.0000,-133.7071
1598.0611,-120.0000,-154.6935
1658.5637,-120.0000,-176.4744
1721.3569,-120.0000,160.9200
1786.5274,-120.0000,137.4586
1854.1654,-120.0000,113.1090
1924.3641,-120.0000,87.8375
1997.2205,-120.0000,61.6091
2072.8353,-120.0000,34.3878
2151.3128,-120.0000,6.1359
2232.7615,-120.0000,-23.1856
2317.2938,-120.0000,-53.6173
2405.0266,-120.0000,-85.2010
2496.0809,-120.0000,-117.9806
2590.5825,-120.0000,-152.0012
2688.6620,-120.0000,172.6902
2790.4547,-120.0000,136.0448
2896.1013,-120.0000,98.0120
3005.7477,-120.0000,58.5393
3119.5453,-120.0000,17.5722
3237.6513,-120.0000,-24.9459
3360.2288,-120.0000,-69.0738
3487.4470,-120.0000,-114.8724
3619.4818,-120.0000,-162.4049
3756.5154,-120.0000,148.2630
3898.7370,-120.0000,97.0632
4046.3432,-120.0000,43.9250
4199.5378,-120.0000,-11.2251
4358.5323,-120.0000,-68.4631
4523.5463,-120.0000,-127.8681
4694.8078,-120.0000,170.4777
4872.5532,-120.0000,106.4894
5057.0280,-120.0000,40.0784
5248.4871,-120.0000,-28.8468
5447.1948,-120.0000,-100.3816
5653.4256,-120.0000,-174.6247
5867.4643,-120.0000,108.3214
6089.6065,-120.0000,28.3502
6320.1590,-120.0000,-54.6487
6559.4402,-120.0000,-140.7900
6807.7806,-120.0000,129.8075
7065.5232,-120.0000,37.0202
7333.0239,-120.0000,-59.2801
7610.6522,-120.0000,-159.2263
7898.7915,-120.0000,97.0436
8197.8397,-120.0000,-10.6138
8508.2099,-120.0000,-122.3470
8830.3307,-120.0000,121.6895
9164.6470,-120.0000,1.3356
9511.6206,-120.0000,-123.5749
9871.7305,-120.0000,106.7855
10245.4742,-120.0000,-27.7622
10633.3679,-120.0000,-167.4039
11035.9472,-120.0000,47.6675
11453.7681,-120.0000,-102.7480
11887.4078,-120.0000,101.1417
12337.4650,-120.0000,-60.8789
12804.5615,-120.0000,130.9664
13289.3421,-120.0000,-43.5546
13792.4766,-120.0000,135.3169
14314.6598,-120.0000,-52.6690
14856.6128,-120.0000,112.2279
15419.0841,-120.0000,-90.2618
16002.8507,-120.0000,59.5823
16608.7186,-120.0000,-158.5302
17237.5246,-120.0000,-24.9003
17890.1373,-120.0000,100.1591
18567.4579,-120.0000,-143.6763
19270.4218,-120.0000,-36.7433
20000.0000,-120.0000,60.6085
