"Frequency Response Reference 425 Hz @ 94 dBSPL",,,
"Left (94 dB)",,Right,
X,Y,X,Y
Hz,dBSPL,Hz,dBSPL
19.2307692307692,96.7351966179458,19.2307692307692,93.5925525803507
19.3425152405774,96.9366181707349,19.3425152405774,93.7515763846186
19.4549105832623,97.1380397235241,19.4549105832623,93.9106001888865
19.5679590319627,97.3394612763132,19.5679590319627,94.0696239931544
19.6816643817421,97.5408828291024,19.6816643817421,94.2286477974223
19.7960304497163,97.7423043818915,19.7960304497163,94.3876716016901
19.9110610751817,97.9437259346807,19.9110610751817,94.546695405958
20.026760119744,98.1451474874698,20.026760119744,94.7057192102259
20.1431314674479,98.3465690402589,20.1431314674479,94.8647430144938
20.2601790249073,98.5479905930481,20.2601790249073,95.0237668187617
20.377906721437,98.7494121458372,20.377906721437,95.1827906230296
20.4963185091839,98.9508336986264,20.4963185091839,95.3418144272975
20.6154183632601,99.1522552514155,20.6154183632601,95.5008382315654
20.7352102818763,99.3536768042047,20.7352102818763,95.6598620358333
20.855698286476,99.5495174349772,20.855698286476,95.8174335273539
20.9768864218704,99.7208015486371,20.9768864218704,95.9686147230192
21.0987787563742,99.892085662297,21.0987787563742,96.1197959186845
21.2213793819424,100.063369775957,21.2213793819424,96.2709771143497
21.3446924143073,100.234653889617,21.3446924143073,96.422158310015
21.4687219931171,100.405938003277,21.4687219931171,96.5733395056803
21.5934722820745,100.577222116937,21.5934722820745,96.7245207013456
21.7189474690766,100.748506230596,21.7189474690766,96.8757018970109
21.8451517663555,100.919790344256,21.8451517663555,97.0268830926762
21.9720894106197,101.091074457916,21.9720894106197,97.1780642883415
22.0997646631965,101.262358571576,22.0997646631965,97.3292454840067
22.2281818101747,101.433642685236,22.2281818101747,97.480426679672
22.3573451625487,101.604926798896,22.3573451625487,97.6316078753373
22.4872590563633,101.736532588304,22.4872590563633,97.7673953724412
22.6179278528589,101.807278457195,22.6179278528589,97.8795715077107
22.7493559386186,101.878024326087,22.7493559386186,97.9917476429801
22.8815477257145,101.948770194978,22.8815477257145,98.1039237782496
23.0145076518569,102.01951606387,23.0145076518569,98.216099913519
23.1482401805422,102.090261932762,23.1482401805422,98.3282760487885
23.2827498012035,102.161007801653,23.2827498012035,98.4404521840579
23.4180410293611,102.231753670545,23.4180410293611,98.5526283193274
23.5541184067739,102.302499539436,23.5541184067739,98.6648044545968
23.6909865015922,102.373245408328,23.6909865015922,98.7769805898663
23.8286499085107,102.443991277219,23.8286499085107,98.8891567251357
23.967113248923,102.514737146111,23.967113248923,99.0013328604052
24.1063811710768,102.531751979778,24.1063811710768,99.0916564090043
24.2464583502294,102.492159626179,24.2464583502294,99.1589576305494
24.3873494888055,102.45256727258,24.3873494888055,99.2262588520945
24.5290593165544,102.41297491898,24.5290593165544,99.2935600736396
24.6715925907089,102.373382565381,24.6715925907089,99.3608612951847
24.8149540961454,102.333790211782,24.8149540961454,99.4281625167298
24.9591486455438,102.294197858183,24.9591486455438,99.4954637382749
25.1041810795499,102.254605504584,25.1041810795499,99.56276495982
25.2500562669372,102.215013150985,25.2500562669372,99.6300661813651
25.3967791047708,102.175420797385,25.3967791047708,99.6973674029102
25.5443545185716,102.135828443786,25.5443545185716,99.7646686244553
25.6927874624814,102.077853518485,25.6927874624814,99.8156344283973
25.8420829194301,101.985447450144,25.8420829194301,99.8360034742144
25.9922459013017,101.893041381803,25.9922459013017,99.8563725200314
26.1432814491037,101.800635313462,26.1432814491037,99.8767415658484
26.2951946331355,101.708229245122,26.2951946331355,99.8971106116655
26.4479905531594,101.615823176781,26.4479905531594,99.9174796574825
26.6016743385708,101.52341710844,26.6016743385708,99.9378487032996
26.7562511485715,101.4310110401,26.7562511485715,99.9582177491166
26.9117261723419,101.338604971759,26.9117261723419,99.9785867949337
27.068104629216,101.246198903418,27.068104629216,99.9989558407507
27.2253917688559,101.153792835077,27.2253917688559,100.019324886568
27.3835928714288,101.053041703195,27.3835928714288,100.001935555195
27.5427132477837,100.951202709879,27.5427132477837,99.9796240465252
27.7027582396296,100.849363716563,27.7027582396296,99.9573125378559
27.8637332197154,100.747524723248,27.8637332197154,99.9350010291866
28.0256435920099,100.645685729932,28.0256435920099,99.9126895205173
28.1884947918829,100.543846736617,28.1884947918829,99.8903780118479
28.3522922862884,100.442007743301,28.3522922862884,99.8680665031786
28.5170415739476,100.340168749986,28.5170415739476,99.8457549945093
28.6827481855335,100.23832975667,28.6827481855335,99.82344348584
28.8494176838569,100.136519691853,28.8494176838569,99.8004627403253
29.0170556640527,100.036162146632,29.0170556640527,99.7438791576489
29.1856677537684,99.9358046014107,29.1856677537684,99.6872955749724
29.355259613352,99.8354470561894,29.355259613352,99.630711992296
29.525836936043,99.7350895109681,29.525836936043,99.5741284096195
29.6974054481632,99.6347319657468,29.6974054481632,99.517544826943
29.8699709093085,99.5343744205255,29.8699709093085,99.4609612442666
30.0435391125429,99.4340168753042,30.0435391125429,99.4043776615901
30.2181158845927,99.3336593300828,30.2181158845927,99.3477940789137
30.3937070860419,99.2333017848615,30.3937070860419,99.2912104962372
30.5703186115293,99.144597608063,30.5703186115293,99.2410082583929
30.7479563899462,99.0611805901822,30.7479563899462,99.1937012507526
30.9266263846354,98.9777635723014,30.9266263846354,99.1463942431124
31.1063345935916,98.8943465544206,31.1063345935916,99.0990872354722
31.2870870496623,98.8109295365399,31.2870870496623,99.0517802278319
31.4688898207509,98.7275125186591,31.4688898207509,99.0044732201917
31.6517490100201,98.6440955007783,31.6517490100201,98.9571662125515
31.8356707560966,98.5606784828975,31.8356707560966,98.9098592049112
32.0206612332777,98.4772614650168,32.0206612332777,98.862552197271
32.2067266517381,98.4012237318349,32.2067266517381,98.8051071831926
32.3938732577383,98.3266438524293,32.3938732577383,98.7456593014145
32.5821073338351,98.2520639730238,32.5821073338351,98.6862114196363
32.7714351990913,98.1774840936182,32.7714351990913,98.6267635378582
32.9618632092889,98.1029042142127,32.9618632092889,98.56731565608
33.1533977571418,98.0283243348071,33.1533977571418,98.5078677743019
33.3460452725108,97.9537444554016,33.3460452725108,98.4484198925238
33.5398122226193,97.879164575996,33.5398122226193,98.3889720107456
33.73470511227,97.8132928016311,33.73470511227,98.3315323311495
33.9307304840643,97.7597375369959,33.9307304840643,98.2769329987469
34.1278949186207,97.7061822723607,34.1278949186207,98.2223336663443
34.3262050347967,97.6526270077255,34.3262050347967,98.1677343339417
34.5256674899104,97.5990717430903,34.5256674899104,98.1131350015391
34.7262889799643,97.5455164784551,34.7262889799643,98.0585356691365
34.92807623987,97.4919612138199,34.92807623987,98.0039363367339
35.1310360436742,97.4384059491847,35.1310360436742,97.9493370043313
35.3351752047861,97.3928934492244,35.3351752047861,97.8930722780951
35.5405005762064,97.3602201678929,35.5405005762064,97.8341489690957
35.7470190507572,97.3275468865614,35.7470190507572,97.7752256600963
35.954737561313,97.2948736052299,35.954737561313,97.716302351097
36.1636630810341,97.2622003238985,36.1636630810341,97.6573790420976
36.3738026236004,97.229527042567,36.3738026236004,97.5984557330982
36.5851632434467,97.1968537612355,36.5851632434467,97.5395324240989
36.7977520359997,97.164180479904,36.7977520359997,97.4806091150995
37.0115761379161,97.1375631703646,37.0115761379161,97.4232487443056
37.2266427273225,97.1133825069215,37.2266427273225,97.3665172283689
37.4429590240557,97.0892018434783,37.4429590240557,97.3097857124323
37.6605322899058,97.0650211800352,37.6605322899058,97.2530541964957
37.8793698288595,97.040840516592,37.8793698288595,97.196322680559
38.0994789873455,97.0166598531489,38.0994789873455,97.1395911646224
38.3208671544809,96.9924791897057,38.3208671544809,97.0828596486857
38.5435417623198,96.9612807728435,38.5435417623198,97.023834957517
38.767510286102,96.9180089368324,38.767510286102,96.9608650627902
38.9927802445048,96.8747371008213,38.9927802445048,96.8978951680634
39.2193591998945,96.8314652648103,39.2193591998945,96.8349252733366
39.4472547585812,96.7881934287992,39.4472547585812,96.7719553786098
39.6764745710733,96.7449215927882,39.6764745710733,96.7089854838829
39.9070263323351,96.7016497567771,39.9070263323351,96.6460155891561
40.1389177820443,96.659555130679,40.1389177820443,96.5876389701402
40.3721567048526,96.6199392525342,40.3721567048526,96.5389340100541
40.6067509306467,96.5803233743894,40.6067509306467,96.490229049968
40.8427083348109,96.5407074962445,40.8427083348109,96.4415240898819
41.0800368384919,96.5010916180997,41.0800368384919,96.3928191297958
41.3187444088645,96.4614757399549,41.3187444088645,96.3441141697097
41.5588390593991,96.42185986181,41.5588390593991,96.2954092096236
41.8003288501307,96.3818265475842,41.8003288501307,96.2484535875818
42.0432218879295,96.3414555033807,42.0432218879295,96.2029132813817
42.2875263267732,96.3010844591773,42.2875263267732,96.1573729751816
42.5332503680202,96.2607134149739,42.5332503680202,96.1118326689815
42.7804022606856,96.2203423707705,42.7804022606856,96.0662923627815
43.0289903017178,96.179971326567,43.0289903017178,96.0207520565814
43.2790228362769,96.1391549840254,43.2790228362769,95.9750522413121
43.5305082580151,96.0873819244455,43.5305082580151,95.9254276511521
43.7834550093582,96.0356088648655,43.7834550093582,95.8758030609922
44.0378715817896,95.9838358052856,44.0378715817896,95.8261784708323
44.2937665161344,95.9320627457056,44.2937665161344,95.7765538806723
44.5511484028471,95.8802896861256,44.5511484028471,95.7269292905124
44.8100258822993,95.8285166265457,44.8100258822993,95.6773047003525
45.0704076450701,95.7877075623862,45.0704076450701,95.6385407187707
45.3323024322378,95.7503182188758,45.3323024322378,95.6031642110058
45.5957190356731,95.7129288753653,45.5957190356731,95.567787703241
45.8606662983348,95.6755395318549,45.8606662983348,95.5324111954761
46.1271531145658,95.6381501883445,46.1271531145658,95.4970346877112
46.3951884303926,95.600760844834,46.3951884303926,95.4616581799464
46.6647812438251,95.5596327275151,46.6647812438251,95.4238438762832
46.9359406051586,95.5169456555548,46.9359406051586,95.3850130860859
47.2086756172779,95.4742585835944,47.2086756172779,95.3461822958885
47.4829954359629,95.431571511634,47.4829954359629,95.3073515056911
47.7589092701957,95.3888844396737,47.7589092701957,95.2685207154938
48.0364263824698,95.3461973677133,48.0364263824698,95.2296899252964
48.3155560891014,95.3131732693368,48.3155560891014,95.2013767172901
48.5963077605415,95.2817937638976,48.5963077605415,95.1748535526113
48.8786908216913,95.2504142584583,48.8786908216913,95.1483303879325
49.1627147522177,95.2190347530191,49.1627147522177,95.1218072232537
49.4483890868723,95.1876552475799,49.4483890868723,95.095284058575
49.735723415811,95.1574731472906,49.735723415811,95.069893775508
50.0247273849162,95.1322259544346,50.0247273849162,95.0491724767762
50.3154106961205,95.1069787615786,50.3154106961205,95.0284511780444
50.6077831077322,95.0817315687227,50.6077831077322,95.0077298793125
50.9018544347635,95.0564843758667,50.9018544347635,94.9870085805807
51.1976345492593,95.0312371830107,51.1976345492593,94.9662872818488
51.4951333806291,95.008035438933,51.4951333806291,94.9492880885675
51.7943609159799,94.9856463917311,51.7943609159799,94.9337677607085
52.0953272004519,94.9632573445292,52.0953272004519,94.9182474328495
52.3980423375555,94.9408682973273,52.3980423375555,94.9027271049905
52.7025164895105,94.9184792501254,52.7025164895105,94.8872067771315
53.0087598775871,94.9015951134309,53.0087598775871,94.8749275661538
53.3167827824494,94.8928091701409,53.3167827824494,94.8674163148583
53.6265955445002,94.8840232268509,53.6265955445002,94.8599050635627
53.9382085642283,94.875237283561,53.9382085642283,94.8523938122671
54.2516323025573,94.866451340271,54.2516323025573,94.8448825609716
54.5668772811976,94.8592104178612,54.5668772811976,94.8379451299036
54.8839540829985,94.8565490561,54.8839540829985,94.8327085460977
55.2028733523045,94.8538876943387,55.2028733523045,94.8274719622917
55.5236457953118,94.8512263325775,55.5236457953118,94.8222353784857
55.8462821804284,94.8485649708163,55.8462821804284,94.8169987946798
56.1707933386351,94.84584128802,56.1707933386351,94.8108702462223
56.4971901638493,94.8429298591098,56.4971901638493,94.8020545970612
56.8254836132908,94.8400184301996,56.8254836132908,94.7932389479002
57.1556847078493,94.8371070012894,57.1556847078493,94.7844232987391
57.487804532455,94.8341955723792,57.487804532455,94.775607649578
57.8218542364498,94.8324694663146,57.8218542364498,94.766642256257
58.1578450339627,94.832619947902,58.1578450339627,94.7574397899374
58.4957882042851,94.8327704294894,58.4957882042851,94.7482373236178
58.8356950922505,94.8329209110767,58.8356950922505,94.7390348572982
59.1775771086146,94.8330713926641,59.1775771086146,94.7298323909785
59.5214457304386,94.8423610055891,59.5214457304386,94.7262516691447
59.8673125014748,94.8563955685762,59.8673125014748,94.7255897035757
60.2151890325536,94.8704301315632,60.2151890325536,94.7249277380067
60.5650870019736,94.8844646945502,60.5650870019736,94.7242657724377
60.9170181558936,94.898074776468,60.9170181558936,94.7229297469443
61.2709943087268,94.9044596996379,61.2709943087268,94.7101204419278
61.6270273435377,94.9108446228077,61.6270273435377,94.6973111369113
61.9851292124405,94.9172295459775,61.9851292124405,94.6845018318948
62.345311937001,94.9236144691474,62.345311937001,94.6716925268783
62.7075876086396,94.9294283480886,62.7075876086396,94.6568462643706
63.0719683890375,94.9348154673748,63.0719683890375,94.6404777182415
63.4384665105449,94.940202586661,63.4384665105449,94.6241091721124
63.8070942765918,94.9455897059472,63.8070942765918,94.6077406259834
64.1778640621006,94.9494869451534,64.1778640621006,94.5907485947779
64.5507883139019,94.9475210817942,64.5507883139019,94.571302972173
64.9258795511524,94.9455552184351,64.9258795511524,94.5518573495682
65.3031503657549,94.943589355076,65.3031503657549,94.5324117269633
65.6826134227812,94.9416234917168,65.6826134227812,94.5129661043584
66.064281460897,94.9365069351413,66.064281460897,94.4941425009721
66.4481672927901,94.9311922930391,66.4481672927901,94.4753580042191
66.8342838055998,94.9258776509369,66.8342838055998,94.4565735074661
67.2226439613502,94.9205630088347,67.2226439613502,94.4377890107132
67.6132607973848,94.9084026137125,67.6132607973848,94.4178072557138
68.0061474268045,94.8943313227247,68.0061474268045,94.3974913028802
68.4013170389077,94.8802600317369,68.4013170389077,94.3771753500466
68.7987828996331,94.8661887407491,68.7987828996331,94.3568593972129
69.198558352005,94.8512879851232,69.198558352005,94.3357287954947
69.6006568165813,94.8360655818342,69.6006568165813,94.3142822913279
70.0050917919038,94.8208431785451,70.0050917919038,94.2928357871612
70.4118768549517,94.8056207752561,70.4118768549517,94.2713892829944
70.8210256615971,94.7866963954642,70.8210256615971,94.2494315343398
71.2325519470637,94.7665560221565,71.2325519470637,94.2273058564772
71.6464695263875,94.7464156488488,71.6464695263875,94.2051801786147
72.0627922948811,94.7262752755411,72.0627922948811,94.1830545007521
72.4815342285995,94.7081133734433,72.4815342285995,94.1622838916019
72.9027093848101,94.6902364760894,72.9027093848101,94.141708484186
73.3263319024637,94.6723595787355,73.3263319024637,94.1211330767701
73.7524160026701,94.6544275706335,73.7524160026701,94.1004423040958
74.1809759891745,94.6358675790757,74.1809759891745,94.0784369516689
74.6120262488386,94.6173075875178,74.6120262488386,94.0564315992421
75.045581252123,94.5987475959599,75.045581252123,94.0344262468152
75.4816555535732,94.5822844489877,75.4816555535732,94.0151784135819
75.9202637923081,94.5694091837008,75.9202637923081,94.0006489331915
76.3614206925114,94.556533918414,76.3614206925114,93.9861194528011
76.8051410639262,94.5436586531271,76.8051410639262,93.9715899724107
77.2514398023518,94.5284051989346,77.2514398023518,93.9557313801753
77.7003318901438,94.5122951081925,77.7003318901438,93.9393940346406
78.1518323967174,94.4961850174505,78.1518323967174,93.9230566891059
78.6059564790528,94.4803003903281,78.6059564790528,93.9068628169264
79.0627193822045,94.465468171918,79.0627193822045,93.8913386430742
79.5221364398127,94.4506359535078,79.5221364398127,93.875814469222
79.9842230746182,94.4358037350977,79.9842230746182,93.8602902953698
80.4489947989803,94.4215858529134,80.4489947989803,93.8470109487753
80.9164672153971,94.4076445072465,80.9164672153971,93.8347420858307
81.3866560170299,94.3937031615795,81.3866560170299,93.8224732228861
81.8595769882295,94.3794746755214,81.8595769882295,93.8101301801418
82.3352460050664,94.3644768615564,82.3352460050664,93.7975883893572
82.8136790358635,94.3494790475915,82.8136790358635,93.7850465985726
83.2948921417326,94.3344812336265,83.2948921417326,93.772504807788
83.778901477113,94.317669221393,83.778901477113,93.7565555830205
84.2657232903142,94.3007002357423,84.2657232903142,93.7403115301927
84.7553739240612,94.2837312500915,84.7553739240612,93.7240674773649
85.2478698160434,94.2736654272929,85.2478698160434,93.714062106211
85.7432274994659,94.2676057254079,85.7432274994659,93.7076772367985
86.2414636036051,94.2615460235229,86.2414636036051,93.7012923673861
86.7425948543663,94.2533885739078,86.7425948543663,93.6935871881789
87.2466380748461,94.2421702123815,87.2466380748461,93.6839554894388
87.7536101858961,94.2309518508553,87.7536101858961,93.6743237906988
88.2635282066918,94.2189587822484,88.2635282066918,93.6634708825693
88.7764092553035,94.2045085894252,88.7764092553035,93.6487446870525
89.292270549271,94.1900583966019,89.292270549271,93.6340184915358
89.8111294061817,94.1759982116094,89.8111294061817,93.6198250424147
90.3330032442519,94.1645517278361,90.3330032442519,93.6092018803348
90.8579095829115,94.1531052440629,90.8579095829115,93.5985787182549
91.3858660433922,94.1420026127466,91.3858660433922,93.588155972968
91.9168903493192,94.1351397582243,91.9168903493192,93.5802044110355
92.4510003273056,94.1282769037019,92.4510003273056,93.572252849103
92.9882139075517,94.1215896793909,92.9882139075517,93.5644639240761
93.5285491244462,94.1171221189166,93.5285491244462,93.5587304498485
94.0720241171718,94.1126545584422,94.0720241171718,93.5529969756209
94.6186571303146,94.107435824621,94.6186571303146,93.5468570386165
95.1684665144759,94.0968582866969,95.1684665144759,93.5378174321755
95.7214707268887,94.0862807487728,95.7214707268887,93.5287778257345
96.2776883320369,94.0763302851775,96.2776883320369,93.5200576146909
96.837138002279,94.0685755026233,96.837138002279,93.5124557565867
97.3998385184748,94.0608207200692,97.3998385184748,93.5048538984825
97.9658087706154,94.05441118058,97.9658087706154,93.4980382020997
98.5350677584581,94.0502990170424,98.5350677584581,93.4925650950824
99.1076345921636,94.0461868535049,99.1076345921636,93.4870919880651
99.6835284929379,94.0414317232686,99.6835284929379,93.4816156293371
100.262768793677,94.0361772249682,100.262768793677,93.4761367451277
100.845374939618,94.0309227266677,100.845374939618,93.4706578609183
101.431366488987,94.023061457724,101.431366488987,93.4636798283889
102.020763113663,94.0145538024208,102.020763113663,93.4563300604222
