# Frequency response measurement
# freq  spl
20      2.5
25      2.8
31.5    3.0
40      2.9
50      2.7
63      2.5
80      2.3
100     2.0
125     1.8
160     1.5
200     1.2
250     0.9
315     0.6
400     0.3
500     0.0
630    -0.3
800    -0.5
1000   -0.8
1250   -1.0
1600   -1.2
2000   -1.3
2500   -1.5
3150   -1.7
4000   -1.8
5000   -2.0
6300   -2.2
8000   -2.5
10000  -2.8
12500  -3.0
16000  -3.3
20000  -3.5
