freq,spl
20,3.0
25,3.0
31.5,3.0
40,2.8
50,2.5
63,2.2
80,1.8
100,1.5
125,1.2
160,0.9
200,0.6
250,0.3
315,0.0
400,-0.2
500,-0.5
630,-0.7
800,-0.9
1000,-1.0
1250,-1.2
1600,-1.3
2000,-1.5
2500,-1.6
3150,-1.8
4000,-2.0
5000,-2.2
6300,-2.4
8000,-2.6
10000,-2.8
12500,-3.0
16000,-3.2
20000,-3.5
