"Frequency Response Reference 425 Hz @ 94 dBSPL",,,
"Left (94 dB)",,Right,
X,Y,X,Y
Hz,dBSPL,Hz,dBSPL
19.2307692307692,92.3974747416117,19.2307692307692,92.4684815251411
19.3425152405774,92.3878088696884,19.3425152405774,92.4910825148541
19.4549105832623,92.378142997765,19.4549105832623,92.513683504567
19.5679590319627,92.3684771258417,19.5679590319627,92.53628449428
19.6816643817421,92.3588112539184,19.6816643817421,92.558885483993
19.7960304497163,92.349145381995,19.7960304497163,92.5814864737059
19.9110610751817,92.3394795100717,19.9110610751817,92.6040874634189
20.026760119744,92.3298136381484,20.026760119744,92.6266884531318
20.1431314674479,92.320147766225,20.1431314674479,92.6492894428448
20.2601790249073,92.3104818943017,20.2601790249073,92.6718904325578
20.377906721437,92.3008160223784,20.377906721437,92.6944914222707
20.4963185091839,92.2911501504551,20.4963185091839,92.7170924119837
20.6154183632601,92.2814842785317,20.6154183632601,92.7396934016966
20.7352102818763,92.2718184066084,20.7352102818763,92.7622943914096
20.855698286476,92.2649973358069,20.855698286476,92.7801345916717
20.9768864218704,92.2706936245424,20.9768864218704,92.7770269257437
21.0987787563742,92.2763899132779,21.0987787563742,92.7739192598157
21.2213793819424,92.2820862020134,21.2213793819424,92.7708115938877
21.3446924143073,92.287782490749,21.3446924143073,92.7677039279597
21.4687219931171,92.2934787794845,21.4687219931171,92.7645962620317
21.5934722820745,92.29917506822,21.5934722820745,92.7614885961037
21.7189474690766,92.3048713569555,21.7189474690766,92.7583809301757
21.8451517663555,92.3105676456911,21.8451517663555,92.7552732642476
21.9720894106197,92.3162639344266,21.9720894106197,92.7521655983196
22.0997646631965,92.3219602231621,22.0997646631965,92.7490579323917
22.2281818101747,92.3276565118976,22.2281818101747,92.7459502664637
22.3573451625487,92.3333528006332,22.3573451625487,92.7428426005357
22.4872590563633,92.3362907447631,22.4872590563633,92.7403232563587
22.6179278528589,92.3349978490927,22.6179278528589,92.7387062994595
22.7493559386186,92.3337049534222,22.7493559386186,92.7370893425603
22.8815477257145,92.3324120577518,22.8815477257145,92.735472385661
23.0145076518569,92.3311191620814,23.0145076518569,92.7338554287618
23.1482401805422,92.329826266411,23.1482401805422,92.7322384718626
23.2827498012035,92.3285333707406,23.2827498012035,92.7306215149634
23.4180410293611,92.3272404750702,23.4180410293611,92.7290045580642
23.5541184067739,92.3259475793998,23.5541184067739,92.727387601165
23.6909865015922,92.3246546837294,23.6909865015922,92.7257706442658
23.8286499085107,92.323361788059,23.8286499085107,92.7241536873665
23.967113248923,92.3220688923886,23.967113248923,92.7225367304673
24.1063811710768,92.3244639959156,24.1063811710768,92.7171779248102
24.2464583502294,92.3307445124137,24.2464583502294,92.7078769741251
24.3873494888055,92.3370250289118,24.3873494888055,92.69857602344
24.5290593165544,92.3433055454099,24.5290593165544,92.6892750727549
24.6715925907089,92.3495860619079,24.6715925907089,92.6799741220698
24.8149540961454,92.355866578406,24.8149540961454,92.6706731713847
24.9591486455438,92.3621470949041,24.9591486455438,92.6613722206996
25.1041810795499,92.3684276114022,25.1041810795499,92.6520712700145
25.2500562669372,92.3747081279002,25.2500562669372,92.6427703193294
25.3967791047708,92.3809886443983,25.3967791047708,92.6334693686443
25.5443545185716,92.3872691608964,25.5443545185716,92.6241684179592
25.6927874624814,92.3864680225699,25.6927874624814,92.6154906626318
25.8420829194301,92.3724027189154,25.8420829194301,92.6079801720836
25.9922459013017,92.3583374152609,25.9922459013017,92.6004696815354
26.1432814491037,92.3442721116064,26.1432814491037,92.5929591909872
26.2951946331355,92.3302068079518,26.2951946331355,92.585448700439
26.4479905531594,92.3161415042973,26.4479905531594,92.5779382098908
26.6016743385708,92.3020762006428,26.6016743385708,92.5704277193426
26.7562511485715,92.2880108969883,26.7562511485715,92.5629172287943
26.9117261723419,92.2739455933337,26.9117261723419,92.5554067382461
27.068104629216,92.2598802896792,27.068104629216,92.5478962476979
27.2253917688559,92.2458149860247,27.2253917688559,92.5403857571497
27.3835928714288,92.2337664628907,27.3835928714288,92.5261878821474
27.5427132477837,92.2219808470115,27.5427132477837,92.5111182405495
27.7027582396296,92.2101952311322,27.7027582396296,92.4960485989518
27.8637332197154,92.198409615253,27.8637332197154,92.480978957354
28.0256435920099,92.1866239993737,28.0256435920099,92.4659093157562
28.1884947918829,92.1748383834945,28.1884947918829,92.4508396741584
28.3522922862884,92.1630527676152,28.3522922862884,92.4357700325606
28.5170415739476,92.151267151736,28.5170415739476,92.4207003909628
28.6827481855335,92.1394815358567,28.6827481855335,92.405630749365
28.8494176838569,92.1277942870498,28.8494176838569,92.3909445367715
29.0170556640527,92.1210461158433,29.0170556640527,92.3955105552625
29.1856677537684,92.1142979446368,29.1856677537684,92.4000765737536
29.355259613352,92.1075497734303,29.355259613352,92.4046425922446
29.525836936043,92.1008016022238,29.525836936043,92.4092086107356
29.6974054481632,92.0940534310172,29.6974054481632,92.4137746292266
29.8699709093085,92.0873052598107,29.8699709093085,92.4183406477177
30.0435391125429,92.0805570886042,30.0435391125429,92.4229066662087
30.2181158845927,92.0738089173977,30.2181158845927,92.4274726846997
30.3937070860419,92.0670607461912,30.3937070860419,92.4320387031907
30.5703186115293,92.0651205937503,30.5703186115293,92.4516989864823
30.7479563899462,92.0653618500121,30.7479563899462,92.4782075709563
30.9266263846354,92.0656031062738,30.9266263846354,92.5047161554302
31.1063345935916,92.0658443625356,31.1063345935916,92.5312247399041
31.2870870496623,92.0660856187974,31.2870870496623,92.5577333243781
31.4688898207509,92.0663268750592,31.4688898207509,92.584241908852
31.6517490100201,92.066568131321,31.6517490100201,92.610750493326
31.8356707560966,92.0668093875828,31.8356707560966,92.6372590777999
32.0206612332777,92.0670506438445,32.0206612332777,92.6637676622739
32.2067266517381,92.1341348764846,32.2067266517381,92.6570740931027
32.3938732577383,92.2144246282924,32.3938732577383,92.6438210961482
32.5821073338351,92.2947143801001,32.5821073338351,92.6305680991938
32.7714351990913,92.3750041319079,32.7714351990913,92.6173151022394
32.9618632092889,92.4552938837157,32.9618632092889,92.6040621052849
33.1533977571418,92.5355836355235,33.1533977571418,92.5908091083305
33.3460452725108,92.6158733873313,33.3460452725108,92.577556111376
33.5398122226193,92.6961631391391,33.5398122226193,92.5643031144216
33.73470511227,92.7287808298333,33.73470511227,92.5391001825517
33.9307304840643,92.6939724385266,33.9307304840643,92.496995583905
34.1278949186207,92.6591640472198,34.1278949186207,92.4548909852582
34.3262050347967,92.6243556559131,34.3262050347967,92.4127863866115
34.5256674899104,92.5895472646064,34.5256674899104,92.3706817879647
34.7262889799643,92.5547388732996,34.7262889799643,92.328577189318
34.92807623987,92.5199304819929,34.92807623987,92.2864725906712
35.1310360436742,92.4851220906862,35.1310360436742,92.2443679920244
35.3351752047861,92.462872967273,35.3351752047861,92.2234776775905
35.5405005762064,92.4606730673327,35.5405005762064,92.236453184684
35.7470190507572,92.4584731673924,35.7470190507572,92.2494286917775
35.954737561313,92.456273267452,35.954737561313,92.262404198871
36.1636630810341,92.4540733675117,36.1636630810341,92.2753797059644
36.3738026236004,92.4518734675713,36.3738026236004,92.2883552130579
36.5851632434467,92.449673567631,36.5851632434467,92.3013307201514
36.7977520359997,92.4474736676906,36.7977520359997,92.3143062272449
37.0115761379161,92.4443902040157,37.0115761379161,92.3797944126179
37.2266427273225,92.4409512347012,37.2266427273225,92.466411298211
37.4429590240557,92.4375122653867,37.4429590240557,92.5530281838042
37.6605322899058,92.4340732960722,37.6605322899058,92.6396450693973
37.8793698288595,92.4306343267578,37.8793698288595,92.7262619549904
38.0994789873455,92.4271953574433,38.0994789873455,92.8128788405836
38.3208671544809,92.4237563881288,38.3208671544809,92.8994957261767
38.5435417623198,92.4390680367634,38.5435417623198,92.9663296764123
38.767510286102,92.4866384520259,38.767510286102,92.9991288499463
38.9927802445048,92.5342088672883,38.9927802445048,93.0319280234802
39.2193591998945,92.5817792825508,39.2193591998945,93.0647271970142
39.4472547585812,92.6293496978133,39.4472547585812,93.0975263705482
39.6764745710733,92.6769201130758,39.6764745710733,93.1303255440821
39.9070263323351,92.7244905283383,39.9070263323351,93.1631247176161
40.1389177820443,92.7835698599008,40.1389177820443,93.1775402733262
40.3721567048526,92.8668825099293,40.3721567048526,93.1532470528431
40.6067509306467,92.9501951599579,40.6067509306467,93.1289538323599
40.8427083348109,93.0335078099865,40.8427083348109,93.1046606118767
41.0800368384919,93.1168204600151,41.0800368384919,93.0803673913936
41.3187444088645,93.2001331100436,41.3187444088645,93.0560741709104
41.5588390593991,93.2834457600722,41.5588390593991,93.0317809504272
41.8003288501307,93.3339141724003,41.8003288501307,93.0076274601296
42.0432218879295,93.3578096932951,42.0432218879295,92.9835870196486
42.2875263267732,93.38170521419,42.2875263267732,92.9595465791676
42.5332503680202,93.4056007350848,42.5332503680202,92.9355061386866
42.7804022606856,93.4294962559796,42.7804022606856,92.9114656982056
43.0289903017178,93.4533917768745,43.0289903017178,92.8874252577246
43.2790228362769,93.4758261883707,43.2790228362769,92.8631827983388
43.5305082580151,93.4623095062531,43.5305082580151,92.8339695951018
43.7834550093582,93.4487928241355,43.7834550093582,92.8047563918649
44.0378715817896,93.4352761420179,44.0378715817896,92.7755431886279
44.2937665161344,93.4217594599003,44.2937665161344,92.7463299853909
44.5511484028471,93.4082427777827,44.5511484028471,92.717116782154
44.8100258822993,93.3947260956651,44.8100258822993,92.687903578917
45.0704076450701,93.3717167815374,45.0704076450701,92.6635314173612
45.3323024322378,93.3457466717823,45.3323024322378,92.6406691989935
45.5957190356731,93.3197765620272,45.5957190356731,92.6178069806259
45.8606662983348,93.2938064522721,45.8606662983348,92.5949447622582
46.1271531145658,93.267836342517,46.1271531145658,92.5720825438905
46.3951884303926,93.2418662327619,46.3951884303926,92.5492203255229
46.6647812438251,93.2317122175414,46.6647812438251,92.5624645489012
46.9359406051586,93.2281530313337,46.9359406051586,92.5907640572018
47.2086756172779,93.2245938451261,47.2086756172779,92.6190635655024
47.4829954359629,93.2210346589184,47.4829954359629,92.647363073803
47.7589092701957,93.2174754727107,47.7589092701957,92.6756625821036
48.0364263824698,93.213916286503,48.0364263824698,92.7039620904042
48.3155560891014,93.2152982419074,48.3155560891014,92.798986265412
48.5963077605415,93.2175211565182,48.5963077605415,92.9053666668088
48.8786908216913,93.2197440711291,48.8786908216913,93.0117470682057
49.1627147522177,93.2219669857399,49.1627147522177,93.1181274696025
49.4483890868723,93.2241899003508,49.4483890868723,93.2245078709993
49.735723415811,93.2277814616792,49.735723415811,93.3128618962796
50.0247273849162,93.2370136742615,50.0247273849162,93.3269231915653
50.3154106961205,93.2462458868439,50.3154106961205,93.3409844868511
50.6077831077322,93.2554780994262,50.6077831077322,93.3550457821368
50.9018544347635,93.2647103120086,50.9018544347635,93.3691070774226
51.1976345492593,93.273942524591,51.1976345492593,93.3831683727084
51.4951333806291,93.2701482945324,51.4951333806291,93.379654689825
51.7943609159799,93.2611784035866,51.7943609159799,93.3691581237701
52.0953272004519,93.2522085126409,52.0953272004519,93.3586615577151
52.3980423375555,93.2432386216951,52.3980423375555,93.3481649916602
52.7025164895105,93.2342687307493,52.7025164895105,93.3376684256052
53.0087598775871,93.2282712206261,53.0087598775871,93.3221649191206
53.3167827824494,93.2266463364959,53.3167827824494,93.2992957757359
53.6265955445002,93.2250214523656,53.6265955445002,93.2764266323511
53.9382085642283,93.2233965682354,53.9382085642283,93.2535574889664
54.2516323025573,93.2217716841052,54.2516323025573,93.2306883455817
54.5668772811976,93.2193583113621,54.5668772811976,93.2125169899864
54.8839540829985,93.2146077977625,54.8839540829985,93.2082702384998
55.2028733523045,93.209857284163,55.2028733523045,93.2040234870131
55.5236457953118,93.2051067705634,55.5236457953118,93.1997767355264
55.8462821804284,93.2003562569639,55.8462821804284,93.1955299840397
56.1707933386351,93.1910734488901,56.1707933386351,93.1933856472336
56.4971901638493,93.168136813111,56.4971901638493,93.1975749694557
56.8254836132908,93.1452001773319,56.8254836132908,93.2017642916777
57.1556847078493,93.1222635415528,57.1556847078493,93.2059536138997
57.487804532455,93.0993269057737,57.487804532455,93.2101429361218
57.8218542364498,93.0867436713657,57.8218542364498,93.2125360124112
58.1578450339627,93.0905518068214,58.1578450339627,93.2120852955943
58.4957882042851,93.0943599422771,58.4957882042851,93.2116345787773
58.8356950922505,93.0981680777327,58.8356950922505,93.2111838619604
59.1775771086146,93.1019762131884,59.1775771086146,93.2107331451435
59.5214457304386,93.093611528517,59.5214457304386,93.2025028512766
59.8673125014748,93.0789268314196,59.8673125014748,93.1902334750022
60.2151890325536,93.0642421343222,60.2151890325536,93.1779640987279
60.5650870019736,93.0495574372248,60.5650870019736,93.1656947224536
60.9170181558936,93.0359739365162,60.9170181558936,93.154298934092
61.2709943087268,93.0411340719749,61.2709943087268,93.1577726223869
61.6270273435377,93.0462942074337,61.6270273435377,93.1612463106819
61.9851292124405,93.0514543428924,61.9851292124405,93.1647199989769
62.345311937001,93.0566144783512,62.345311937001,93.1681936872718
62.7075876086396,93.054327362955,62.7075876086396,93.1660656508443
63.0719683890375,93.0464746782969,63.0719683890375,93.159751265986
63.4384665105449,93.0386219936388,63.4384665105449,93.1534368811278
63.8070942765918,93.0307693089807,63.8070942765918,93.1471224962696
64.1778640621006,93.0238019370387,64.1778640621006,93.1416688269147
64.5507883139019,93.0203185228507,64.5507883139019,93.139602318274
64.9258795511524,93.0168351086627,64.9258795511524,93.1375358096333
65.3031503657549,93.0133516944748,65.3031503657549,93.1354693009926
65.6826134227812,93.0098682802868,65.6826134227812,93.1334027923519
66.064281460897,93.0125905271888,66.064281460897,93.1341545644923
66.4481672927901,93.0157029268479,66.4481672927901,93.1350835232372
66.8342838055998,93.0188153265069,66.8342838055998,93.1360124819821
67.2226439613502,93.021927726166,67.2226439613502,93.136941440727
67.6132607973848,93.0157939138879,67.6132607973848,93.1332541045476
68.0061474268045,93.0070791513314,68.0061474268045,93.1282781944364
68.4013170389077,92.998364388775,68.4013170389077,93.1233022843253
68.7987828996331,92.9896496262185,68.7987828996331,93.1183263742141
69.198558352005,92.9974067192337,69.198558352005,93.119732830307
69.6006568165813,93.011551226022,69.6006568165813,93.1236142239454
70.0050917919038,93.0256957328103,70.0050917919038,93.1274956175837
70.4118768549517,93.0398402395986,70.4118768549517,93.131377011222
70.8210256615971,93.0567624943728,70.8210256615971,93.1386146428873
71.2325519470637,93.0745971600001,71.2325519470637,93.1469547028568
71.6464695263875,93.0924318256273,71.6464695263875,93.1552947628263
72.0627922948811,93.1102664912546,72.0627922948811,93.1636348227958
72.4815342285995,93.1076861810102,72.4815342285995,93.150671693188
72.9027093848101,93.1021650319306,72.9027093848101,93.1346397748823
73.3263319024637,93.0966438828509,73.3263319024637,93.1186078565765
73.7524160026701,93.0912273723014,73.7524160026701,93.1036781929447
74.1809759891745,93.0870032111216,74.1809759891745,93.101308650945
74.6120262488386,93.0827790499418,74.6120262488386,93.0989391089453
75.045581252123,93.0785548887621,75.045581252123,93.0965695669457
75.4816555535732,93.0760597938868,75.4816555535732,93.0947461307078
75.9202637923081,93.0765232803814,75.9202637923081,93.0938571284641
76.3614206925114,93.0769867668759,76.3614206925114,93.0929681262204
76.8051410639262,93.0774502533705,76.8051410639262,93.0920791239767
77.2514398023518,93.0648690425627,77.2514398023518,93.0789675828767
77.7003318901438,93.0475890609966,77.7003318901438,93.0614534169523
78.1518323967174,93.0303090794305,78.1518323967174,93.043939251028
78.6059564790528,93.0171526718089,78.6059564790528,93.0305269819335
79.0627193822045,93.0232440929454,79.0627193822045,93.0362613581579
79.5221364398127,93.0293355140818,79.5221364398127,93.0419957343822
79.9842230746182,93.0354269352182,79.9842230746182,93.0477301106066
80.4489947989803,93.0408186509409,80.4489947989803,93.0570901571895
80.9164672153971,93.0458954021699,80.9164672153971,93.0680822583568
81.3866560170299,93.050972153399,81.3866560170299,93.0790743595242
81.8595769882295,93.0538490225535,81.8595769882295,93.0880782512682
82.3352460050664,93.0508318039248,82.3352460050664,93.0917551843502
82.8136790358635,93.047814585296,82.8136790358635,93.0954321174321
83.2948921417326,93.0447973666673,83.2948921417326,93.0991090505141
83.778901477113,93.0449327368734,83.778901477113,93.0997497244811
84.2657232903142,93.0453408846758,84.2657232903142,93.1001276862753
84.7553739240612,93.0457490324781,84.7553739240612,93.1005056480695
85.2478698160434,93.0431240319171,85.2478698160434,93.0953710250216
85.7432274994659,93.0387388006687,85.7432274994659,93.0870372768917
86.2414636036051,93.0343535694202,86.2414636036051,93.0787035287619
86.7425948543663,93.0293934877822,86.7425948543663,93.0708804134342
87.2466380748461,93.0235946177715,87.2466380748461,93.0638023838974
87.7536101858961,93.0177957477608,87.7536101858961,93.0567243543605
88.2635282066918,93.0174874268831,88.2635282066918,93.0544791906675
88.7764092553035,93.0345933798319,88.7764092553035,93.0675623387939
89.292270549271,93.0516993327807,89.292270549271,93.0806454869203
89.8111294061817,93.0662643739548,89.8111294061817,93.0910918550288
90.3330032442519,93.0638010795912,90.3330032442519,93.0838674108995
90.8579095829115,93.0613377852276,90.8579095829115,93.0766429667703
91.3858660433922,93.0593626802786,91.3858660433922,93.070510892081
91.9168903493192,93.063407058713,91.9168903493192,93.07784797403
92.4510003273056,93.0674514371474,92.4510003273056,93.0851850559789
92.9882139075517,93.07082889259,92.9882139075517,93.0915917576147
93.5285491244462,93.0657775883337,93.5285491244462,93.0862400520813
94.0720241171718,93.0607262840773,94.0720241171718,93.0808883465479
94.6186571303146,93.0559897446116,94.6186571303146,93.0756287837086
95.1684665144759,93.0534987092744,95.1684665144759,93.0710265586851
95.7214707268887,93.0510076739371,95.7214707268887,93.0664243336616
96.2776883320369,93.050769243379,96.2776883320369,93.0639092526415
96.837138002279,93.0584182376132,96.837138002279,93.068702240711
97.3998385184748,93.0660672318473,97.3998385184748,93.0734952287805
97.9658087706154,93.0672687513604,97.9658087706154,93.0745590436236
98.5350677584581,93.0574594180688,98.5350677584581,93.0692542600224
99.1076345921636,93.0476500847773,99.1076345921636,93.0639494764211
99.6835284929379,93.0428101351562,99.6835284929379,93.0604897849358
100.262768793677,93.0418297190198,100.262768793677,93.0584631071349
100.845374939618,93.0408493028834,100.845374939618,93.0564364293341
101.431366488987,93.0387976052864,101.431366488987,93.0528285308864
102.020763113663,93.036480268008,102.020763113663,93.048828545985
102.613584599831,93.0344560407549,102.613584599831,93.0456239428927
